netcdf eigenstate1 {
dimensions:
	len_string = 33 ;
	len_line = 81 ;
	four = 4 ;
	time_step = UNLIMITED ; // (1 currently)
	len_name = 33 ;
	num_dim = 2 ;
	num_nodes = 6561 ;
	num_elem = 1600 ;
	num_el_blk = 1 ;
	num_node_sets = 4 ;
	num_side_sets = 4 ;
	num_el_in_blk1 = 1600 ;
	num_nod_per_el1 = 9 ;
	num_side_ss1 = 40 ;
	num_side_ss2 = 40 ;
	num_side_ss3 = 40 ;
	num_side_ss4 = 40 ;
	num_nod_ns1 = 81 ;
	num_nod_ns2 = 81 ;
	num_nod_ns3 = 81 ;
	num_nod_ns4 = 81 ;
	num_nod_var = 1 ;
variables:
	double time_whole(time_step) ;
	int eb_status(num_el_blk) ;
	int eb_prop1(num_el_blk) ;
		eb_prop1:name = "ID" ;
	int ns_status(num_node_sets) ;
	int ns_prop1(num_node_sets) ;
		ns_prop1:name = "ID" ;
	int ss_status(num_side_sets) ;
	int ss_prop1(num_side_sets) ;
		ss_prop1:name = "ID" ;
	double coordx(num_nodes) ;
	double coordy(num_nodes) ;
	char eb_names(num_el_blk, len_name) ;
	char ns_names(num_node_sets, len_name) ;
	char ss_names(num_side_sets, len_name) ;
	char coor_names(num_dim, len_name) ;
	int node_num_map(num_nodes) ;
	int connect1(num_el_in_blk1, num_nod_per_el1) ;
		connect1:elem_type = "QUAD9" ;
	int elem_num_map(num_elem) ;
	int elem_ss1(num_side_ss1) ;
	int side_ss1(num_side_ss1) ;
	int elem_ss2(num_side_ss2) ;
	int side_ss2(num_side_ss2) ;
	int elem_ss3(num_side_ss3) ;
	int side_ss3(num_side_ss3) ;
	int elem_ss4(num_side_ss4) ;
	int side_ss4(num_side_ss4) ;
	int node_ns1(num_nod_ns1) ;
	int node_ns2(num_nod_ns2) ;
	int node_ns3(num_nod_ns3) ;
	int node_ns4(num_nod_ns4) ;
	double vals_nod_var1(time_step, num_nodes) ;
	char name_nod_var(num_nod_var, len_name) ;

// global attributes:
		:api_version = 5.22f ;
		:version = 5.22f ;
		:floating_point_word_size = 8 ;
		:file_size = 1 ;
		:int64_status = 0 ;
		:title = "results/eigenstate1.e" ;
		:maximum_name_length = 32 ;
data:

 time_whole = 0 ;

 eb_status = 1 ;

 eb_prop1 = 0 ;

 ns_status = 1, 1, 1, 1 ;

 ns_prop1 = 0, 1, 2, 3 ;

 ss_status = 1, 1, 1, 1 ;

 ss_prop1 = 0, 3, 1, 2 ;

 coordx = -3.14159, -2.9845105, -2.9845105, -3.14159, -3.06305025, 
    -2.9845105, -3.06305025, -3.14159, -3.06305025, -2.827431, -2.827431, 
    -2.90597075, -2.827431, -2.90597075, -2.90597075, -2.6703515, -2.6703515, 
    -2.74889125, -2.6703515, -2.74889125, -2.74889125, -2.513272, -2.513272, 
    -2.59181175, -2.513272, -2.59181175, -2.59181175, -2.3561925, -2.3561925, 
    -2.43473225, -2.3561925, -2.43473225, -2.43473225, -2.199113, -2.199113, 
    -2.27765275, -2.199113, -2.27765275, -2.27765275, -2.0420335, -2.0420335, 
    -2.12057325, -2.0420335, -2.12057325, -2.12057325, -1.884954, -1.884954, 
    -1.96349375, -1.884954, -1.96349375, -1.96349375, -1.7278745, -1.7278745, 
    -1.80641425, -1.7278745, -1.80641425, -1.80641425, -1.570795, -1.570795, 
    -1.64933475, -1.570795, -1.64933475, -1.64933475, -1.4137155, -1.4137155, 
    -1.49225525, -1.4137155, -1.49225525, -1.49225525, -1.256636, -1.256636, 
    -1.33517575, -1.256636, -1.33517575, -1.33517575, -1.0995565, -1.0995565, 
    -1.17809625, -1.0995565, -1.17809625, -1.17809625, -0.942477, -0.942477, 
    -1.02101675, -0.942477, -1.02101675, -1.02101675, -0.7853975, -0.7853975, 
    -0.86393725, -0.7853975, -0.86393725, -0.86393725, -0.628318, -0.628318, 
    -0.70685775, -0.628318, -0.70685775, -0.70685775, -0.4712385, -0.4712385, 
    -0.54977825, -0.4712385, -0.54977825, -0.54977825, -0.314159, -0.314159, 
    -0.39269875, -0.314159, -0.39269875, -0.39269875, -0.1570795, -0.1570795, 
    -0.23561925, -0.1570795, -0.23561925, -0.23561925, 0, 0, -0.07853975, 0, 
    -0.07853975, -0.07853975, 0.1570795, 0.1570795, 0.0785397499999996, 
    0.1570795, 0.0785397499999996, 0.0785397499999996, 0.314159, 0.314159, 
    0.23561925, 0.314159, 0.23561925, 0.23561925, 0.4712385, 0.4712385, 
    0.39269875, 0.4712385, 0.39269875, 0.39269875, 0.628318, 0.628318, 
    0.54977825, 0.628318, 0.54977825, 0.54977825, 0.7853975, 0.7853975, 
    0.70685775, 0.7853975, 0.70685775, 0.70685775, 0.942477, 0.942477, 
    0.863937249999999, 0.942477, 0.863937249999999, 0.863937249999999, 
    1.0995565, 1.0995565, 1.02101675, 1.0995565, 1.02101675, 1.02101675, 
    1.256636, 1.256636, 1.17809625, 1.256636, 1.17809625, 1.17809625, 
    1.4137155, 1.4137155, 1.33517575, 1.4137155, 1.33517575, 1.33517575, 
    1.570795, 1.570795, 1.49225525, 1.570795, 1.49225525, 1.49225525, 
    1.7278745, 1.7278745, 1.64933475, 1.7278745, 1.64933475, 1.64933475, 
    1.884954, 1.884954, 1.80641425, 1.884954, 1.80641425, 1.80641425, 
    2.0420335, 2.0420335, 1.96349375, 2.0420335, 1.96349375, 1.96349375, 
    2.199113, 2.199113, 2.12057325, 2.199113, 2.12057325, 2.12057325, 
    2.3561925, 2.3561925, 2.27765275, 2.3561925, 2.27765275, 2.27765275, 
    2.513272, 2.513272, 2.43473225, 2.513272, 2.43473225, 2.43473225, 
    2.6703515, 2.6703515, 2.59181175, 2.6703515, 2.59181175, 2.59181175, 
    2.827431, 2.827431, 2.74889125, 2.827431, 2.74889125, 2.74889125, 
    2.9845105, 2.9845105, 2.90597075, 2.9845105, 2.90597075, 2.90597075, 
    3.14159, 3.14159, 3.06305025, 3.14159, 3.06305025, 3.06305025, 
    -2.9845105, -3.14159, -2.9845105, -3.06305025, -3.14159, -3.06305025, 
    -2.827431, -2.827431, -2.90597075, -2.90597075, -2.6703515, -2.6703515, 
    -2.74889125, -2.74889125, -2.513272, -2.513272, -2.59181175, -2.59181175, 
    -2.3561925, -2.3561925, -2.43473225, -2.43473225, -2.199113, -2.199113, 
    -2.27765275, -2.27765275, -2.0420335, -2.0420335, -2.12057325, 
    -2.12057325, -1.884954, -1.884954, -1.96349375, -1.96349375, -1.7278745, 
    -1.7278745, -1.80641425, -1.80641425, -1.570795, -1.570795, -1.64933475, 
    -1.64933475, -1.4137155, -1.4137155, -1.49225525, -1.49225525, -1.256636, 
    -1.256636, -1.33517575, -1.33517575, -1.0995565, -1.0995565, -1.17809625, 
    -1.17809625, -0.942477, -0.942477, -1.02101675, -1.02101675, -0.7853975, 
    -0.7853975, -0.86393725, -0.86393725, -0.628318, -0.628318, -0.70685775, 
    -0.70685775, -0.4712385, -0.4712385, -0.54977825, -0.54977825, -0.314159, 
    -0.314159, -0.39269875, -0.39269875, -0.1570795, -0.1570795, -0.23561925, 
    -0.23561925, 0, 0, -0.07853975, -0.07853975, 0.1570795, 0.1570795, 
    0.0785397499999996, 0.0785397499999996, 0.314159, 0.314159, 0.23561925, 
    0.23561925, 0.4712385, 0.4712385, 0.39269875, 0.39269875, 0.628318, 
    0.628318, 0.54977825, 0.54977825, 0.7853975, 0.7853975, 0.70685775, 
    0.70685775, 0.942477, 0.942477, 0.863937249999999, 0.863937249999999, 
    1.0995565, 1.0995565, 1.02101675, 1.02101675, 1.256636, 1.256636, 
    1.17809625, 1.17809625, 1.4137155, 1.4137155, 1.33517575, 1.33517575, 
    1.570795, 1.570795, 1.49225525, 1.49225525, 1.7278745, 1.7278745, 
    1.64933475, 1.64933475, 1.884954, 1.884954, 1.80641425, 1.80641425, 
    2.0420335, 2.0420335, 1.96349375, 1.96349375, 2.199113, 2.199113, 
    2.12057325, 2.12057325, 2.3561925, 2.3561925, 2.27765275, 2.27765275, 
    2.513272, 2.513272, 2.43473225, 2.43473225, 2.6703515, 2.6703515, 
    2.59181175, 2.59181175, 2.827431, 2.827431, 2.74889125, 2.74889125, 
    2.9845105, 2.9845105, 2.90597075, 2.90597075, 3.14159, 3.14159, 
    3.06305025, 3.06305025, -2.9845105, -3.14159, -2.9845105, -3.06305025, 
    -3.14159, -3.06305025, -2.827431, -2.827431, -2.90597075, -2.90597075, 
    -2.6703515, -2.6703515, -2.74889125, -2.74889125, -2.513272, -2.513272, 
    -2.59181175, -2.59181175, -2.3561925, -2.3561925, -2.43473225, 
    -2.43473225, -2.199113, -2.199113, -2.27765275, -2.27765275, -2.0420335, 
    -2.0420335, -2.12057325, -2.12057325, -1.884954, -1.884954, -1.96349375, 
    -1.96349375, -1.7278745, -1.7278745, -1.80641425, -1.80641425, -1.570795, 
    -1.570795, -1.64933475, -1.64933475, -1.4137155, -1.4137155, -1.49225525, 
    -1.49225525, -1.256636, -1.256636, -1.33517575, -1.33517575, -1.0995565, 
    -1.0995565, -1.17809625, -1.17809625, -0.942477, -0.942477, -1.02101675, 
    -1.02101675, -0.7853975, -0.7853975, -0.86393725, -0.86393725, -0.628318, 
    -0.628318, -0.70685775, -0.70685775, -0.4712385, -0.4712385, -0.54977825, 
    -0.54977825, -0.314159, -0.314159, -0.39269875, -0.39269875, -0.1570795, 
    -0.1570795, -0.23561925, -0.23561925, 0, 0, -0.07853975, -0.07853975, 
    0.1570795, 0.1570795, 0.0785397499999996, 0.0785397499999996, 0.314159, 
    0.314159, 0.23561925, 0.23561925, 0.4712385, 0.4712385, 0.39269875, 
    0.39269875, 0.628318, 0.628318, 0.54977825, 0.54977825, 0.7853975, 
    0.7853975, 0.70685775, 0.70685775, 0.942477, 0.942477, 0.863937249999999, 
    0.863937249999999, 1.0995565, 1.0995565, 1.02101675, 1.02101675, 
    1.256636, 1.256636, 1.17809625, 1.17809625, 1.4137155, 1.4137155, 
    1.33517575, 1.33517575, 1.570795, 1.570795, 1.49225525, 1.49225525, 
    1.7278745, 1.7278745, 1.64933475, 1.64933475, 1.884954, 1.884954, 
    1.80641425, 1.80641425, 2.0420335, 2.0420335, 1.96349375, 1.96349375, 
    2.199113, 2.199113, 2.12057325, 2.12057325, 2.3561925, 2.3561925, 
    2.27765275, 2.27765275, 2.513272, 2.513272, 2.43473225, 2.43473225, 
    2.6703515, 2.6703515, 2.59181175, 2.59181175, 2.827431, 2.827431, 
    2.74889125, 2.74889125, 2.9845105, 2.9845105, 2.90597075, 2.90597075, 
    3.14159, 3.14159, 3.06305025, 3.06305025, -2.9845105, -3.14159, 
    -2.9845105, -3.06305025, -3.14159, -3.06305025, -2.827431, -2.827431, 
    -2.90597075, -2.90597075, -2.6703515, -2.6703515, -2.74889125, 
    -2.74889125, -2.513272, -2.513272, -2.59181175, -2.59181175, -2.3561925, 
    -2.3561925, -2.43473225, -2.43473225, -2.199113, -2.199113, -2.27765275, 
    -2.27765275, -2.0420335, -2.0420335, -2.12057325, -2.12057325, -1.884954, 
    -1.884954, -1.96349375, -1.96349375, -1.7278745, -1.7278745, -1.80641425, 
    -1.80641425, -1.570795, -1.570795, -1.64933475, -1.64933475, -1.4137155, 
    -1.4137155, -1.49225525, -1.49225525, -1.256636, -1.256636, -1.33517575, 
    -1.33517575, -1.0995565, -1.0995565, -1.17809625, -1.17809625, -0.942477, 
    -0.942477, -1.02101675, -1.02101675, -0.7853975, -0.7853975, -0.86393725, 
    -0.86393725, -0.628318, -0.628318, -0.70685775, -0.70685775, -0.4712385, 
    -0.4712385, -0.54977825, -0.54977825, -0.314159, -0.314159, -0.39269875, 
    -0.39269875, -0.1570795, -0.1570795, -0.23561925, -0.23561925, 0, 0, 
    -0.07853975, -0.07853975, 0.1570795, 0.1570795, 0.0785397499999996, 
    0.0785397499999996, 0.314159, 0.314159, 0.23561925, 0.23561925, 
    0.4712385, 0.4712385, 0.39269875, 0.39269875, 0.628318, 0.628318, 
    0.54977825, 0.54977825, 0.7853975, 0.7853975, 0.70685775, 0.70685775, 
    0.942477, 0.942477, 0.863937249999999, 0.863937249999999, 1.0995565, 
    1.0995565, 1.02101675, 1.02101675, 1.256636, 1.256636, 1.17809625, 
    1.17809625, 1.4137155, 1.4137155, 1.33517575, 1.33517575, 1.570795, 
    1.570795, 1.49225525, 1.49225525, 1.7278745, 1.7278745, 1.64933475, 
    1.64933475, 1.884954, 1.884954, 1.80641425, 1.80641425, 2.0420335, 
    2.0420335, 1.96349375, 1.96349375, 2.199113, 2.199113, 2.12057325, 
    2.12057325, 2.3561925, 2.3561925, 2.27765275, 2.27765275, 2.513272, 
    2.513272, 2.43473225, 2.43473225, 2.6703515, 2.6703515, 2.59181175, 
    2.59181175, 2.827431, 2.827431, 2.74889125, 2.74889125, 2.9845105, 
    2.9845105, 2.90597075, 2.90597075, 3.14159, 3.14159, 3.06305025, 
    3.06305025, -2.9845105, -3.14159, -2.9845105, -3.06305025, -3.14159, 
    -3.06305025, -2.827431, -2.827431, -2.90597075, -2.90597075, -2.6703515, 
    -2.6703515, -2.74889125, -2.74889125, -2.513272, -2.513272, -2.59181175, 
    -2.59181175, -2.3561925, -2.3561925, -2.43473225, -2.43473225, -2.199113, 
    -2.199113, -2.27765275, -2.27765275, -2.0420335, -2.0420335, -2.12057325, 
    -2.12057325, -1.884954, -1.884954, -1.96349375, -1.96349375, -1.7278745, 
    -1.7278745, -1.80641425, -1.80641425, -1.570795, -1.570795, -1.64933475, 
    -1.64933475, -1.4137155, -1.4137155, -1.49225525, -1.49225525, -1.256636, 
    -1.256636, -1.33517575, -1.33517575, -1.0995565, -1.0995565, -1.17809625, 
    -1.17809625, -0.942477, -0.942477, -1.02101675, -1.02101675, -0.7853975, 
    -0.7853975, -0.86393725, -0.86393725, -0.628318, -0.628318, -0.70685775, 
    -0.70685775, -0.4712385, -0.4712385, -0.54977825, -0.54977825, -0.314159, 
    -0.314159, -0.39269875, -0.39269875, -0.1570795, -0.1570795, -0.23561925, 
    -0.23561925, 0, 0, -0.07853975, -0.07853975, 0.1570795, 0.1570795, 
    0.0785397499999996, 0.0785397499999996, 0.314159, 0.314159, 0.23561925, 
    0.23561925, 0.4712385, 0.4712385, 0.39269875, 0.39269875, 0.628318, 
    0.628318, 0.54977825, 0.54977825, 0.7853975, 0.7853975, 0.70685775, 
    0.70685775, 0.942477, 0.942477, 0.863937249999999, 0.863937249999999, 
    1.0995565, 1.0995565, 1.02101675, 1.02101675, 1.256636, 1.256636, 
    1.17809625, 1.17809625, 1.4137155, 1.4137155, 1.33517575, 1.33517575, 
    1.570795, 1.570795, 1.49225525, 1.49225525, 1.7278745, 1.7278745, 
    1.64933475, 1.64933475, 1.884954, 1.884954, 1.80641425, 1.80641425, 
    2.0420335, 2.0420335, 1.96349375, 1.96349375, 2.199113, 2.199113, 
    2.12057325, 2.12057325, 2.3561925, 2.3561925, 2.27765275, 2.27765275, 
    2.513272, 2.513272, 2.43473225, 2.43473225, 2.6703515, 2.6703515, 
    2.59181175, 2.59181175, 2.827431, 2.827431, 2.74889125, 2.74889125, 
    2.9845105, 2.9845105, 2.90597075, 2.90597075, 3.14159, 3.14159, 
    3.06305025, 3.06305025, -2.9845105, -3.14159, -2.9845105, -3.06305025, 
    -3.14159, -3.06305025, -2.827431, -2.827431, -2.90597075, -2.90597075, 
    -2.6703515, -2.6703515, -2.74889125, -2.74889125, -2.513272, -2.513272, 
    -2.59181175, -2.59181175, -2.3561925, -2.3561925, -2.43473225, 
    -2.43473225, -2.199113, -2.199113, -2.27765275, -2.27765275, -2.0420335, 
    -2.0420335, -2.12057325, -2.12057325, -1.884954, -1.884954, -1.96349375, 
    -1.96349375, -1.7278745, -1.7278745, -1.80641425, -1.80641425, -1.570795, 
    -1.570795, -1.64933475, -1.64933475, -1.4137155, -1.4137155, -1.49225525, 
    -1.49225525, -1.256636, -1.256636, -1.33517575, -1.33517575, -1.0995565, 
    -1.0995565, -1.17809625, -1.17809625, -0.942477, -0.942477, -1.02101675, 
    -1.02101675, -0.7853975, -0.7853975, -0.86393725, -0.86393725, -0.628318, 
    -0.628318, -0.70685775, -0.70685775, -0.4712385, -0.4712385, -0.54977825, 
    -0.54977825, -0.314159, -0.314159, -0.39269875, -0.39269875, -0.1570795, 
    -0.1570795, -0.23561925, -0.23561925, 0, 0, -0.07853975, -0.07853975, 
    0.1570795, 0.1570795, 0.0785397499999996, 0.0785397499999996, 0.314159, 
    0.314159, 0.23561925, 0.23561925, 0.4712385, 0.4712385, 0.39269875, 
    0.39269875, 0.628318, 0.628318, 0.54977825, 0.54977825, 0.7853975, 
    0.7853975, 0.70685775, 0.70685775, 0.942477, 0.942477, 0.863937249999999, 
    0.863937249999999, 1.0995565, 1.0995565, 1.02101675, 1.02101675, 
    1.256636, 1.256636, 1.17809625, 1.17809625, 1.4137155, 1.4137155, 
    1.33517575, 1.33517575, 1.570795, 1.570795, 1.49225525, 1.49225525, 
    1.7278745, 1.7278745, 1.64933475, 1.64933475, 1.884954, 1.884954, 
    1.80641425, 1.80641425, 2.0420335, 2.0420335, 1.96349375, 1.96349375, 
    2.199113, 2.199113, 2.12057325, 2.12057325, 2.3561925, 2.3561925, 
    2.27765275, 2.27765275, 2.513272, 2.513272, 2.43473225, 2.43473225, 
    2.6703515, 2.6703515, 2.59181175, 2.59181175, 2.827431, 2.827431, 
    2.74889125, 2.74889125, 2.9845105, 2.9845105, 2.90597075, 2.90597075, 
    3.14159, 3.14159, 3.06305025, 3.06305025, -2.9845105, -3.14159, 
    -2.9845105, -3.06305025, -3.14159, -3.06305025, -2.827431, -2.827431, 
    -2.90597075, -2.90597075, -2.6703515, -2.6703515, -2.74889125, 
    -2.74889125, -2.513272, -2.513272, -2.59181175, -2.59181175, -2.3561925, 
    -2.3561925, -2.43473225, -2.43473225, -2.199113, -2.199113, -2.27765275, 
    -2.27765275, -2.0420335, -2.0420335, -2.12057325, -2.12057325, -1.884954, 
    -1.884954, -1.96349375, -1.96349375, -1.7278745, -1.7278745, -1.80641425, 
    -1.80641425, -1.570795, -1.570795, -1.64933475, -1.64933475, -1.4137155, 
    -1.4137155, -1.49225525, -1.49225525, -1.256636, -1.256636, -1.33517575, 
    -1.33517575, -1.0995565, -1.0995565, -1.17809625, -1.17809625, -0.942477, 
    -0.942477, -1.02101675, -1.02101675, -0.7853975, -0.7853975, -0.86393725, 
    -0.86393725, -0.628318, -0.628318, -0.70685775, -0.70685775, -0.4712385, 
    -0.4712385, -0.54977825, -0.54977825, -0.314159, -0.314159, -0.39269875, 
    -0.39269875, -0.1570795, -0.1570795, -0.23561925, -0.23561925, 0, 0, 
    -0.07853975, -0.07853975, 0.1570795, 0.1570795, 0.0785397499999996, 
    0.0785397499999996, 0.314159, 0.314159, 0.23561925, 0.23561925, 
    0.4712385, 0.4712385, 0.39269875, 0.39269875, 0.628318, 0.628318, 
    0.54977825, 0.54977825, 0.7853975, 0.7853975, 0.70685775, 0.70685775, 
    0.942477, 0.942477, 0.863937249999999, 0.863937249999999, 1.0995565, 
    1.0995565, 1.02101675, 1.02101675, 1.256636, 1.256636, 1.17809625, 
    1.17809625, 1.4137155, 1.4137155, 1.33517575, 1.33517575, 1.570795, 
    1.570795, 1.49225525, 1.49225525, 1.7278745, 1.7278745, 1.64933475, 
    1.64933475, 1.884954, 1.884954, 1.80641425, 1.80641425, 2.0420335, 
    2.0420335, 1.96349375, 1.96349375, 2.199113, 2.199113, 2.12057325, 
    2.12057325, 2.3561925, 2.3561925, 2.27765275, 2.27765275, 2.513272, 
    2.513272, 2.43473225, 2.43473225, 2.6703515, 2.6703515, 2.59181175, 
    2.59181175, 2.827431, 2.827431, 2.74889125, 2.74889125, 2.9845105, 
    2.9845105, 2.90597075, 2.90597075, 3.14159, 3.14159, 3.06305025, 
    3.06305025, -2.9845105, -3.14159, -2.9845105, -3.06305025, -3.14159, 
    -3.06305025, -2.827431, -2.827431, -2.90597075, -2.90597075, -2.6703515, 
    -2.6703515, -2.74889125, -2.74889125, -2.513272, -2.513272, -2.59181175, 
    -2.59181175, -2.3561925, -2.3561925, -2.43473225, -2.43473225, -2.199113, 
    -2.199113, -2.27765275, -2.27765275, -2.0420335, -2.0420335, -2.12057325, 
    -2.12057325, -1.884954, -1.884954, -1.96349375, -1.96349375, -1.7278745, 
    -1.7278745, -1.80641425, -1.80641425, -1.570795, -1.570795, -1.64933475, 
    -1.64933475, -1.4137155, -1.4137155, -1.49225525, -1.49225525, -1.256636, 
    -1.256636, -1.33517575, -1.33517575, -1.0995565, -1.0995565, -1.17809625, 
    -1.17809625, -0.942477, -0.942477, -1.02101675, -1.02101675, -0.7853975, 
    -0.7853975, -0.86393725, -0.86393725, -0.628318, -0.628318, -0.70685775, 
    -0.70685775, -0.4712385, -0.4712385, -0.54977825, -0.54977825, -0.314159, 
    -0.314159, -0.39269875, -0.39269875, -0.1570795, -0.1570795, -0.23561925, 
    -0.23561925, 0, 0, -0.07853975, -0.07853975, 0.1570795, 0.1570795, 
    0.0785397499999996, 0.0785397499999996, 0.314159, 0.314159, 0.23561925, 
    0.23561925, 0.4712385, 0.4712385, 0.39269875, 0.39269875, 0.628318, 
    0.628318, 0.54977825, 0.54977825, 0.7853975, 0.7853975, 0.70685775, 
    0.70685775, 0.942477, 0.942477, 0.863937249999999, 0.863937249999999, 
    1.0995565, 1.0995565, 1.02101675, 1.02101675, 1.256636, 1.256636, 
    1.17809625, 1.17809625, 1.4137155, 1.4137155, 1.33517575, 1.33517575, 
    1.570795, 1.570795, 1.49225525, 1.49225525, 1.7278745, 1.7278745, 
    1.64933475, 1.64933475, 1.884954, 1.884954, 1.80641425, 1.80641425, 
    2.0420335, 2.0420335, 1.96349375, 1.96349375, 2.199113, 2.199113, 
    2.12057325, 2.12057325, 2.3561925, 2.3561925, 2.27765275, 2.27765275, 
    2.513272, 2.513272, 2.43473225, 2.43473225, 2.6703515, 2.6703515, 
    2.59181175, 2.59181175, 2.827431, 2.827431, 2.74889125, 2.74889125, 
    2.9845105, 2.9845105, 2.90597075, 2.90597075, 3.14159, 3.14159, 
    3.06305025, 3.06305025, -2.9845105, -3.14159, -2.9845105, -3.06305025, 
    -3.14159, -3.06305025, -2.827431, -2.827431, -2.90597075, -2.90597075, 
    -2.6703515, -2.6703515, -2.74889125, -2.74889125, -2.513272, -2.513272, 
    -2.59181175, -2.59181175, -2.3561925, -2.3561925, -2.43473225, 
    -2.43473225, -2.199113, -2.199113, -2.27765275, -2.27765275, -2.0420335, 
    -2.0420335, -2.12057325, -2.12057325, -1.884954, -1.884954, -1.96349375, 
    -1.96349375, -1.7278745, -1.7278745, -1.80641425, -1.80641425, -1.570795, 
    -1.570795, -1.64933475, -1.64933475, -1.4137155, -1.4137155, -1.49225525, 
